jumping
0.2
0.21
0.24
0.25
0.24
0.22
0.21
0.21
0.22
0.23
0.24
0.23
0.23
0.22
0.21
0.19
0.18
0.2
0.22
0.24
0.24
0.22
0.19
0.15
0.12
0.11
0.12
0.14
0.13
0.1
0.07
0.05
0.03
0.05
0.07
0.09
0.1
0.1
0.09
0.07
0.06
0.09
0.12
0.15
0.17
0.17
0.15
0.15
0.15
0.18
0.21
0.23
0.25
0.25
0.24
0.23
0.21
0.2
0.21
0.24
0.26
0.28
0.29
0.29
0.28
0.28
0.3
0.33
0.36
0.37
0.36
0.32
0.28
0.25
0.23
0.25
0.27
0.3
0.3
0.28
0.25
0.22
0.21
0.22
0.23
0.25
0.27
0.26
0.24
0.23
0.23
0.24
0.26
0.27
0.28
0.26
0.23
0.21
0.2
0.21
0.22
0.23
0.22
0.22
0.21
0.2
0.19
0.18
0.19
0.19
0.2
0.21
0.2
0.18
0.15
0.12
0.12
0.14
0.17
0.18
0.16
0.14
0.13
0.11
0.11
0.13
0.15
0.15
0.15
0.13
0.11
0.1
0.12
0.13
0.13
0.15
0.16
0.15
0.15
0.15
0.15
0.15
0.16
0.18
0.16
0.14
0.13
0.11
0.09
0.08
0.09
0.12
0.14
0.14
0.13
0.13
0.11
0.1
0.1
0.11
0.14
0.15
0.13
0.11
0.08
0.06
0.06
0.07
0.09
0.11
0.11
0.1
0.08
0.08
0.08
0.08
0.1
0.11
0.11
0.11
0.1
0.1
0.1
0.12
0.14
0.16
0.16
0.15
0.14
0.13
0.12
0.13
0.15
0.18
0.21
0.21
0.21
0.19
0.17
0.16
0.16
0.18
0.2
0.2
0.19
0.16
0.14
0.13
0.17
0.19
0.22
0.23
0.21
0.19
0.17
0.16
0.16
0.17
0.19
0.18
0.15
0.11
0.09
0.09
0.09
0.1
0.12
0.14
0.12
0.1
0.09
0.07
0.06
0.07
0.09
0.1
0.11
0.11
0.11
0.1
0.09
0.1
0.11
0.13
0.15
0.15
0.14
0.12
0.1
0.09
0.11
0.13
0.15
0.16
0.14
0.1
0.06
0.06
0.1
0.12
0.15
0.16
0.15
0.13
0.12
0.13
0.15
0.17
0.19
0.2
0.18
0.17
0.17
0.18
0.2
0.26
0.36
0.46
0.55
0.61
0.66
0.69
0.72
0.76
0.76
0.72
0.62
0.43
0.23
0.07
-0.02
-0.07
-0.06
-0.04
-0.03
-0.05
-0.06
-0.08
-0.09
-0.09
-0.08
-0.06
-0.04
-0.04
-0.04
-0.06
-0.06
-0.04
-0.02
0.0
0.01
0.03
0.02
0.02
0.02
0.02
0.03
0.05
0.08
0.09
0.09
0.09
0.09
0.08
0.07
0.07
0.09
0.11
0.13
0.14
0.14
0.15
0.16
0.18
0.21
0.25
0.25
0.24
0.23
0.2
0.17
0.19
0.21
0.24
0.25
0.24
0.22
0.2
0.19
0.19
0.21
0.24
0.26
0.24
0.21
0.19
0.19
0.2
0.22
0.23
0.25
0.25
0.24
0.22
0.2
0.19
0.21
0.23
0.26
0.28
0.28
0.27
0.24
0.23
0.22
0.23
0.25
0.29
0.3
0.28
0.27
0.25
0.23
0.25
0.28
0.3
0.3
0.28
0.26
0.25
0.24
0.25
0.26
0.27
0.28
0.28
0.25
0.22
0.21
0.2
0.2
0.2
0.2
0.19
0.17
0.14
0.11
0.11
0.11
0.11
0.12
0.12
0.1
0.09
0.06
0.04
0.03
0.03
0.05
0.06
0.07
0.05
0.03
0.0
0.0
0.01
0.04
0.06
0.05
0.03
0.02
0.0
-0.01
0.01
0.02
0.03
0.03
0.02
0.0
0.0
0.01
0.02
0.03
0.05
0.06
0.05
0.04
0.04
0.04
0.04
0.06
0.07
0.09
0.09
0.09
0.08
0.06
0.05
0.07
0.09
0.12
0.15
0.15
0.14
0.13
0.12
0.12
0.13
0.16
0.18
0.17
0.16
0.12
0.1
0.1
0.12
0.14
0.16
0.17
0.16
0.14
0.12
0.12
0.14
0.16
0.17
0.17
0.15
0.13
0.11
0.08
0.08
0.1
0.12
0.12
0.11
0.1
0.09
0.07
0.07
0.08
0.09
0.11
0.12
0.11
0.1
0.09
0.09
0.09
0.11
0.15
0.16
0.14
0.12
0.1
0.07
0.06
0.08
0.1
0.11
0.1
0.07
0.06
0.05
0.06
0.08
0.11
0.12
0.12
0.1
0.09
0.09
0.1
0.1
0.11
0.13
0.14
0.12
0.1
0.08
0.07
0.07
0.08
0.09
0.11
0.12
0.1
0.08
0.07
0.06
0.06
0.07
0.09
0.09
0.06
0.06
0.05
0.03
0.05
0.07
0.08
0.09
0.08
0.07
0.04
0.03
0.04
0.06
0.08
0.09
0.07
0.03
0.0
-0.01
-0.02
-0.01
0.0
0.01
0.01
0.01
0.0
0.0
0.0
0.0
0.0
0.0
0.01
0.02
0.01
0.0
-0.02
-0.02
0.0
0.01
0.03
0.04
0.02
0.0
-0.01
-0.02
0.0
0.01
0.04
0.04
0.03
0.01
0.0
-0.01
-0.01
0.0
0.03
0.05
0.06
0.03
0.01
0.0
0.01
0.03
0.04
0.05
0.04
0.03
0.02
0.0
0.01
0.05
0.07
0.09
0.09
0.08
0.06
0.04
0.02
0.01
0.02
0.07
0.1
0.1
0.09
0.07
0.06
0.07
0.11
0.15
0.21
0.27
0.32
0.37
0.42
0.49
0.57
0.63
0.66
0.65
0.61
0.5
0.34
0.2
0.09
0.03
0.01
0.0
-0.04
-0.06
-0.07
-0.08
-0.08
-0.07
-0.05
-0.03
-0.03
-0.02
-0.02
-0.03
-0.03
-0.01
0.0
0.03
0.05
0.05
0.02
0.01
0.0
0.0
0.01
0.04
0.06
0.07
0.06
0.04
0.02
0.03
0.06
0.09
0.11
0.09
0.08
0.06
0.04
0.05
0.07
0.09
0.1
0.11
0.09
0.09
0.08
0.07
0.08
0.08
0.1
0.11
0.09
0.08
0.08
0.07
0.07
0.09
0.11
0.12
0.13
0.12
0.09
0.08
0.08
0.09
0.11
0.13
0.14
0.12
0.1
0.09
0.08
0.11
0.13
0.15
0.16
0.15
0.12
0.1
0.11
0.14
0.17
0.19
0.2
0.19
0.17
0.17
0.17
0.17
0.18
0.21
0.23
0.22
0.21
0.2
0.18
0.17
0.18
0.19
0.2
0.19
0.19
0.17
0.14
0.12
0.11
0.11
0.11
0.12
0.11
0.09
0.07
0.05
0.03
0.03
0.04
0.05
0.04
0.01
-0.01
-0.04
-0.07
-0.06
-0.04
-0.03
-0.02
-0.04
-0.07
-0.07
-0.07
-0.06
-0.05
-0.03
-0.01
-0.03
-0.06
-0.08
-0.1
-0.11
-0.09
-0.07
-0.05
-0.05
-0.06
-0.08
-0.09
-0.1
-0.09
-0.07
-0.06
-0.04
-0.04
-0.06
-0.07
-0.08
-0.08
-0.06
-0.03
-0.01
-0.02
-0.02
-0.03
-0.05
-0.03
0.0
0.0
0.02
0.02
0.0
-0.01
-0.03
-0.03
-0.02
-0.01
-0.01
-0.02
-0.04
-0.04
-0.03
-0.03
-0.02
0.0
0.0
0.01
0.02
0.02
0.0
-0.01
-0.02
-0.01
-0.01
0.0
0.0
0.0
-0.01
-0.02
-0.02
-0.02
-0.01
0.01
0.02
0.02
0.01
0.0
-0.01
-0.01
0.0
0.03
0.04
0.05
0.04
0.02
0.0
0.0
0.01
0.03
0.05
0.04
0.02
0.01
0.0
0.0
0.0
0.0
0.03
0.03
0.03
0.03
0.02
0.02
0.03
0.04
0.04
0.05
0.06
0.05
0.03
0.01
0.0
0.02
0.04
0.07
0.07
0.05
0.04
0.03
0.02
0.03
0.05
0.08
0.1
0.1
0.08
0.06
0.05
0.07
0.11
0.13
0.14
0.12
0.1
0.09
0.09
0.1
0.12
0.14
0.16
0.14
0.12
0.12
0.11
0.1
0.1
0.1
0.12
0.14
0.13
0.11
0.07
0.05
0.04
0.05
0.07
0.1
0.1
0.08
0.05
0.03
0.02
0.04
0.07
0.09
0.09
0.07
0.05
0.03
0.03
0.05
0.07
0.09
0.1
0.08
0.05
0.04
0.05
0.06
0.07
0.09
0.1
0.1
0.08
0.06
0.04
0.05
0.07
0.09
0.11
0.11
0.09
0.08
0.07
0.05
0.05
0.06
0.07
0.08
0.08
0.06
0.04
0.01
0.0
0.03
0.06
0.08
0.06
0.04
0.01
0.0
0.01
0.05
0.09
0.12
0.12
0.1
0.08
0.09
0.11
0.19
0.28
0.38
0.46
0.52
0.56
0.58
0.59
0.61
0.61
0.59
0.51
0.39
0.22
0.07
-0.04
-0.1
-0.11
-0.11
-0.09
-0.08
-0.08
-0.08
-0.1
-0.11
-0.12
-0.11
-0.08
-0.07
-0.08
-0.09
-0.11
-0.13
-0.12
-0.08
-0.04
-0.02
-0.02
-0.03
-0.05
-0.05
-0.03
-0.01
0.0
0.02
0.02
0.01
0.0
0.0
-0.01
0.0
0.02
0.04
0.05
0.04
0.04
0.03
0.03
0.02
0.04
0.07
0.08
0.09
0.09
0.07
0.05
0.04
0.05
0.08
0.12
0.13
0.13
0.12
0.09
0.08
0.1
0.14
0.16
0.17
0.15
0.13
0.12
0.12
0.14
0.16
0.18
0.19
0.18
0.17
0.16
0.16
0.17
0.19
0.2
0.22
0.21
0.21
0.21
0.2
0.19
0.19
0.19
0.2
0.2
0.21
0.21
0.19
0.17
0.17
0.17
0.2
0.22
0.22
0.2
0.18
0.15
0.13
0.15
0.16
0.17
0.16
0.15
0.13
0.1
0.08
0.09
0.1
0.11
0.1
0.07
0.03
0.01
0.0
0.0
0.0
0.0
0.0
-0.02
-0.04
-0.06
-0.07
-0.07
-0.07
-0.06
-0.05
-0.05
-0.06
-0.08
-0.09
-0.11
-0.1
-0.07
-0.03
0.0
0.0
0.0
-0.02
-0.04
-0.04
-0.02
0.0
0.0
-0.01
-0.03
-0.05
-0.07
-0.06
-0.03
0.0
0.01
0.0
0.0
-0.02
-0.03
-0.04
-0.02
0.0
0.0
0.0
0.0
-0.01
-0.02
-0.03
-0.03
-0.02
0.0
0.02
0.03
0.03
0.01
0.0
-0.01
0.0
0.01
0.03
0.04
0.04
0.02
0.0
0.0
0.01
0.04
0.07
0.08
0.08
0.06
0.04
0.02
0.03
0.06
0.09
0.1
0.1
0.09
0.08
0.08
0.09
0.1
0.11
0.13
0.14
0.13
0.11
0.1
0.09
0.1
0.11
0.12
0.12
0.1
0.09
0.08
0.08
0.08
0.08
0.09
0.12
0.13
0.12
0.11
0.09
0.08
0.08
0.11
0.13
0.12
0.11
0.09
0.06
0.04
0.05
0.07
0.08
0.09
0.08
0.06
0.03
0.03
0.05
0.07
0.09
0.1
0.08
0.06
0.05
0.05
0.04
0.06
0.08
0.1
0.09
0.07
0.06
0.05
0.03
0.03
0.05
0.06
0.06
0.06
0.04
0.02
0.0
0.0
0.0
0.01
0.03
0.05
0.04
0.03
0.0
-0.01
0.0
0.02
0.05
0.05
0.03
0.0
-0.02
-0.01
0.01
0.03
0.04
0.05
0.03
0.0
-0.01
-0.02
-0.01
0.0
0.02
0.03
0.03
0.02
0.01
0.0
0.0
0.0
0.0
0.01
0.02
0.02
0.0
-0.01
-0.02
0.0
0.01
0.04
0.05
0.03
0.01
0.0
-0.01
0.01
0.04
0.06
0.09
0.09
0.07
0.06
0.04
0.05
0.07
0.1
0.12
0.12
0.11
0.09
0.1
0.11
0.11
0.12
0.12
0.13
0.12
0.11
0.1
0.1
0.1
0.13
0.16
0.18
0.18
0.19
0.23
0.3
0.39
0.49
0.58
0.68
0.73
0.75
0.75
0.73
0.68
0.6
0.52
0.4
0.27
0.14
0.07
0.01
-0.01
0.0
0.0
0.01
0.02
0.01
0.0
-0.02
-0.03
-0.02
0.0
0.02
0.03
0.03
0.03
0.02
0.02
0.01
0.01
0.03
0.05
0.05
0.03
0.04
0.04
0.02
0.02
0.04
0.07
0.1
0.1
0.09
0.07
0.05
0.04
0.05
0.08
0.11
0.1
0.09
0.07
0.05
0.05
0.08
0.11
0.13
0.14
0.12
0.1
0.08
0.08
0.09
0.12
0.13
0.14
0.13
0.1
0.09
0.09
0.09
0.1
0.12
0.14
0.14
0.12
0.12
0.11
0.1
0.1
0.12
0.14
0.16
0.16
0.15
0.14
0.14
0.16
0.19
0.22
0.25
0.25
0.24
0.22
0.19
0.18
0.21
0.24
0.27
0.28
0.27
0.25
0.22
0.21
0.22
0.25
0.27
0.28
0.26
0.24
0.22
0.2
0.2
0.19
0.19
0.19
0.17
0.16
0.14
0.11
0.1
0.1
0.1
0.09
0.07
0.05
0.03
0.0
-0.03
-0.04
-0.04
-0.03
-0.03
-0.05
-0.07
-0.09
-0.11
-0.12
-0.09
-0.08
-0.06
-0.06
-0.06
-0.08
-0.1
-0.1
-0.08
-0.06
-0.04
-0.06
-0.07
-0.09
-0.1
-0.1
-0.08
-0.07
-0.04
-0.04
-0.05
-0.05
-0.05
-0.06
-0.06
-0.05
-0.04
-0.04
-0.05
-0.06
-0.06
-0.09
-0.1
-0.09
-0.07
-0.05
-0.04
-0.06
-0.07
-0.08
-0.09
-0.08
-0.08
-0.05
-0.04
-0.04
-0.06
-0.09
-0.12
-0.11
-0.09
-0.07
-0.06
-0.06
-0.08
-0.1
-0.1
-0.08
-0.06
-0.04
-0.03
-0.03
-0.05
-0.05
-0.06
-0.06
-0.05
-0.02
0.0
0.02
0.02
0.03
0.02
0.0
-0.01
0.0
0.01
0.02
0.03
0.02
0.0
0.0
-0.02
-0.01
0.0
0.02
0.02
0.01
-0.01
-0.04
-0.04
-0.01
0.01
0.02
0.02
0.0
-0.01
-0.04
-0.05
-0.05
-0.02
0.0
0.0
-0.01
-0.03
-0.03
-0.03
-0.02
0.0
0.01
0.02
0.01
0.0
0.0
-0.02
-0.03
-0.02
-0.02
-0.01
0.0
0.0
0.0
-0.01
-0.02
-0.02
0.0
0.01
0.03
0.03
0.03
0.02
0.0
0.0
0.01
0.02
0.03
0.01
0.0
-0.02
-0.04
-0.02
0.0
0.0
0.02
0.02
0.02
0.0
-0.02
-0.02
-0.01
0.0
0.0
0.0
-0.01
-0.03
-0.03
-0.06
-0.08
-0.05
-0.02
0.0
0.01
0.0
-0.01
-0.03
-0.03
-0.03
-0.02
0.0
0.02
0.02
0.0
-0.02
-0.03
-0.03
-0.02
0.0
0.02
0.03
0.01
0.0
-0.02
-0.01
0.0
0.02
0.04
0.03
0.01
0.0
0.0
0.01
0.03
0.05
0.07
0.06
0.04
0.04
0.03
0.01
0.01
0.02
0.04
0.05
0.05
0.05
0.03
0.01
0.0
0.0
0.02
0.04
0.05
0.05
0.04
0.03
0.03
0.03
0.05
0.09
0.11
0.12
0.16
0.23
0.3
0.41
0.53
0.63
0.71
0.73
0.72
0.68
0.63
0.56
0.45
0.3
0.17
0.06
0.0
-0.02
-0.06
-0.07
-0.06
-0.05
-0.04
-0.04
-0.05
-0.06
-0.08
-0.1
-0.1
-0.09
-0.06
-0.04
-0.03
-0.03
-0.06
-0.07
-0.08
-0.06
-0.03
0.0
0.0
-0.01
-0.02
-0.05
-0.08
-0.07
-0.04
-0.01
0.0
0.0
0.0
-0.02
-0.02
0.0
0.01
0.03
0.05
0.03
0.01
0.0
0.0
0.0
0.02
0.03
0.05
0.04
0.04
0.05
0.04
0.03
0.03
0.05
0.07
0.09
0.1
0.09
0.08
0.07
0.07
0.08
0.11
0.13
0.13
0.11
0.09
0.07
0.07
0.09
0.11
0.12
0.12
0.11
0.09
0.06
0.06
0.09
0.12
0.15
0.15
0.14
0.13
0.11
0.11
0.13
0.16
0.19
0.21
0.2
0.19
0.18
0.16
0.15
0.16
0.18
0.2
0.2
0.19
0.16
0.13
0.11
0.11
0.11
0.13
0.14
0.13
0.1
0.06
0.03
0.01
0.03
0.04
0.04
0.01
-0.02
-0.05
-0.08
-0.09
-0.09
-0.08
-0.05
-0.06
-0.08
-0.13
-0.15
-0.15
-0.14
-0.12
-0.1
-0.09
-0.1
-0.12
-0.13
-0.15
-0.15
-0.14
-0.13
-0.11
-0.11
-0.11
-0.13
-0.14
-0.14
-0.14
-0.14
-0.1
-0.09
-0.1
-0.12
-0.14
-0.14
-0.14
-0.12
-0.09
-0.08
-0.09
-0.12
-0.13
-0.15
-0.13
-0.1
-0.06
-0.05
-0.05
-0.08
-0.1
-0.11
-0.11
-0.09
-0.07
-0.05
-0.04
-0.06
-0.07
-0.07
-0.08
-0.07
-0.06
-0.04
-0.03
-0.04
-0.04
-0.06
-0.08
-0.09
-0.08
-0.06
-0.04
-0.03
-0.04
-0.06
-0.08
-0.08
-0.08
-0.06
-0.03
-0.01
-0.02
-0.05
-0.07
-0.09
-0.08
-0.04
0.0
0.0
0.0
-0.02
-0.05
-0.06
-0.04
-0.02
0.0
0.01
0.01
0.0
0.0
-0.02
-0.02
-0.01
0.0
0.01
0.01
0.0
0.0
0.0
-0.01
-0.01
0.0
0.0
0.01
0.01
0.01
0.0
-0.02
-0.02
-0.02
0.0
0.02
0.03
0.01
-0.01
-0.03
-0.05
-0.03
0.0
0.01
0.0
-0.01
-0.02
-0.04
-0.06
-0.05
-0.03
-0.01
0.0
0.0
-0.02
-0.03
-0.03
-0.02
-0.01
0.0
0.0
0.0
-0.01
-0.01
-0.03
-0.04
-0.04
-0.04
-0.01
-0.01
-0.01
-0.02
-0.04
-0.05
-0.03
0.0
0.01
0.03
0.04
0.04
0.03
0.02
0.02
0.04
0.08
0.11
0.12
0.12
0.11
0.09
0.11
0.16
0.21
0.25
0.26
0.26
0.24
0.23
0.24
0.26
0.28
0.31
0.33
0.33
0.32
0.32
0.31
0.32
0.33
0.33
0.32
0.3
0.29
0.28
0.27
0.27
0.29
0.3
0.33
0.34
0.35
0.33
0.3
0.3
0.3
0.32
0.35
0.36
0.36
0.35
0.34
0.33
0.35
0.38
0.41
0.43
0.42
0.4
0.38
0.36
0.35
0.35
0.36
0.37
0.36
0.33
0.3
0.27
0.25
0.24
0.23
0.22
0.19
0.17
0.15
0.11
0.08
0.08
0.08
0.09
0.11
0.16
0.22
0.29
0.35
0.42
0.49
0.54
0.59
0.61
0.61
0.56
0.47
0.32
0.17
0.06
0.0
-0.03
-0.07
-0.1
-0.13
-0.15
-0.14
-0.14
-0.12
-0.12
-0.13
-0.17
-0.2
-0.22
-0.23
-0.22
-0.22
-0.22
-0.23
-0.24
-0.25
-0.27
-0.28
-0.27
-0.25
-0.24
-0.24
-0.24
-0.23
-0.23
-0.23
-0.23
-0.24
-0.24
-0.23
-0.23
-0.25
-0.28
-0.29
-0.29
-0.27
-0.23
-0.21
-0.2
-0.21
-0.22
-0.24
-0.25
-0.23
-0.22
-0.2
-0.21
-0.22
-0.26
-0.3
-0.3
-0.3
-0.29
-0.28
-0.27
-0.28
-0.29
-0.3
-0.31
-0.3
-0.29
-0.28
-0.27
-0.27
-0.28
-0.28
-0.29
-0.29
-0.28
-0.28
-0.26
-0.24
-0.24
-0.26
-0.27
-0.27
-0.27
-0.24
-0.2
-0.18
-0.18
-0.19
-0.21
-0.22
-0.21
-0.17
-0.14
-0.12
-0.13
-0.14
-0.17
-0.17
-0.15
-0.11
-0.07
-0.02
-0.01
0.0
0.0
0.03
0.05
0.08
0.12
0.16
0.21
0.23
0.26
0.28
0.29
0.32
0.36
0.39
0.41
0.43
0.43
0.43
0.42
0.42
0.44
0.46
0.49
0.51
0.52
0.51
0.49
0.47
0.47
0.49
0.5
0.51
0.51
0.49
0.48
0.46
0.46
0.47
0.49
0.52
0.52
0.52
0.51
0.51
0.51
0.54
0.56
0.58
0.59
0.58
0.58
0.57
0.57
0.57
0.58
0.59
0.59
0.59
0.6
0.6
0.6
0.6
0.63
0.66
0.71
0.77
0.84
0.93
1.02
1.1
1.21
1.33
1.49
1.66
1.8
1.92
2.04
2.19
2.37
2.55
2.71
2.86
3.01
3.14
3.26
3.4
3.53
3.66
3.77
3.85
3.91
3.94
3.97
3.99
4.0
4.02
4.02
4.0
3.97
3.9
3.82
3.73
3.62
3.51
3.41
3.33
3.24
3.13
3.0
2.88
2.76
2.67
2.62
2.58
2.55
2.5
2.46
2.43
2.4
2.38
2.39
2.39
2.38
2.34
2.29
2.25
2.21
2.18
2.18
2.2
2.26
2.33
2.42
2.52
2.66
2.84
3.05
3.33
3.68
4.1
4.56
5.01
5.4
5.71
5.76
5.76
5.76
5.76
5.76
5.76
5.76
5.76
5.76
5.76
5.29
4.56
3.79
2.99
2.21
1.46
0.77
0.15
-0.39
-0.87
-1.31
-1.72
-2.1
-2.46
-2.76
-3.0
-3.2
-3.36
-3.49
-3.63
-3.75
-3.85
-3.93
-3.99
-4.03
-4.05
-4.06
-4.08
-4.1
-4.12
-4.13
-4.14
-4.13
-4.1
-4.07
-4.03
-3.99
-3.97
-3.95
-3.95
-3.92
-3.88
-3.83
-3.78
-3.74
-3.72
-3.7
-3.68
-3.67
-3.64
-3.57
-3.51
-3.46
-3.44
-3.44
-3.44
-3.45
-3.46
-3.46
-3.49
-3.6
-3.83
-4.13
-4.41
-4.65
-4.85
-5.0
-5.11
-5.19
-5.24
-5.27
-5.26
-5.22
-5.15
-5.06
-4.93
-4.77
-4.61
-4.42
-4.2
-3.94
-3.66
-3.35
-3.04
-2.74
-2.43
-2.17
-1.93
-1.74
-1.57
-1.43
-1.31
-1.19
-1.09
-1.03
-0.98
-0.95
-0.93
-0.89
-0.83
-0.78
-0.73
-0.69
-0.66
-0.67
-0.71
-0.74
-0.77
-0.82
-0.91
-1.06
-1.21
-1.33
-1.41
-1.48
-1.53
-1.58
-1.62
-1.68
-1.78
-1.9
-2.07
-2.26
-2.48
-2.67
-2.77
-2.76
-2.62
-2.39
-2.14
-1.89
-1.6
-1.26
-0.89
-0.52
-0.19
0.09
0.31
0.49
0.6
0.67
0.75
0.78
0.79
0.76
0.72
0.67
0.6
0.56
0.52
0.48
0.45
0.45
0.44
0.41
0.4
0.38
0.37
0.36
0.36
0.36
0.34
0.32
0.3
0.27
0.24
0.24
0.24
0.25
0.26
0.26
0.25
0.25
0.26
0.3
0.35
0.4
0.46
0.5
0.52
0.54
0.56
0.58
0.64
0.7
0.77
0.81
0.84
0.85
0.85
0.89
0.94
0.99
1.03
1.04
1.03
1.02
1.03
1.03
1.02
1.03
1.05
1.06
1.04
1.01
0.98
0.92
0.89
0.87
0.84
0.81
0.78
0.74
0.67
0.6
0.55
0.51
0.47
0.47
0.44
0.38
0.32
0.25
0.17
0.11
0.07
0.04
0.01
-0.04
-0.1
-0.17
-0.24
-0.28
-0.3
-0.3
-0.3
-0.33
-0.37
-0.38
-0.39
-0.4
-0.41
-0.4
-0.37
-0.35
-0.35
-0.36
-0.35
-0.34
-0.32
-0.29
-0.24
-0.19
-0.17
-0.15
-0.14
-0.14
-0.14
-0.1
-0.06
-0.01
0.0
0.01
0.01
0.01
0.02
0.03
0.05
0.1
0.12
0.13
0.12
0.1
0.1
0.13
0.17
0.19
0.21
0.19
0.17
0.15
0.13
0.13
0.14
0.14
0.14
0.14
0.12
0.09
0.07
0.05
0.05
0.05
0.06
0.07
0.04
0.02
0.0
-0.02
-0.03
-0.03
-0.03
-0.02
-0.04
-0.06
-0.09
-0.12
-0.13
-0.14
-0.13
-0.11
-0.11
-0.14
-0.17
-0.2
-0.21
-0.2
-0.17
-0.14
-0.14
-0.15
-0.18
-0.21
-0.23
-0.22
-0.21
-0.2
-0.2
-0.23
-0.24
-0.25
-0.27
-0.27
-0.25
-0.23
-0.21
-0.22
-0.23
-0.25
-0.27
-0.28
-0.28
-0.25
-0.23
-0.2
-0.19
-0.19
-0.21
-0.24
-0.26
-0.25
-0.22
-0.19
-0.19
-0.2
-0.21
-0.22
-0.22
-0.21
-0.17
-0.14
-0.13
-0.13
-0.14
-0.17
-0.18
-0.16
-0.12
-0.09
-0.07
-0.08
-0.1
-0.11
-0.11
-0.1
-0.07
-0.04
-0.01
-0.02
-0.04
-0.06
-0.08
-0.09
-0.09
-0.08
-0.07
-0.07
-0.08
-0.09
-0.12
-0.14
-0.13
-0.11
-0.09
-0.07
-0.08
-0.1
-0.13
-0.15
-0.15
-0.15
-0.11
-0.08
-0.1
-0.14
-0.17
-0.19
-0.2
-0.2
-0.19
-0.18
-0.18
-0.19
-0.2
-0.21
-0.21
-0.21
-0.19
-0.17
-0.15
-0.14
-0.15
-0.16
-0.17
-0.18
-0.18
-0.17
-0.16
-0.16
-0.15
-0.16
-0.18
-0.19
-0.18
-0.15
-0.11
-0.09
-0.08
-0.09
-0.11
-0.13
-0.13
-0.11
-0.08
-0.08
-0.09
-0.1
-0.13
-0.15
-0.14
-0.12
-0.1
-0.08
-0.08
-0.1
-0.13
-0.15
-0.16
-0.15
-0.12
-0.09
-0.08
-0.09
-0.1
-0.12
-0.13
-0.13
-0.12
-0.1
-0.1
-0.11
-0.11
-0.11
-0.11
-0.1
-0.1
-0.09
-0.06
-0.03
-0.03
-0.02
0.01
0.1
0.19
0.3
0.42
0.5
0.54
0.56
0.56
0.55
0.53
0.5
0.41
0.25
0.09
-0.02
-0.11
-0.15
-0.15
-0.14
-0.13
-0.12
-0.13
-0.15
-0.16
-0.17
-0.16
-0.14
-0.13
-0.11
-0.1
-0.1
-0.09
-0.09
-0.1
-0.07
-0.03
0.0
0.0
0.0
-0.01
-0.03
-0.06
-0.05
-0.03
0.0
0.02
0.02
0.01
0.0
-0.02
-0.02
0.0
0.03
0.07
0.07
0.06
0.03
0.0
0.0
0.03
0.06
0.1
0.11
0.1
0.09
0.07
0.06
0.07
0.1
0.13
0.14
0.15
0.14
0.13
0.12
0.11
0.13
0.15
0.15
0.15
0.14
0.14
0.12
0.12
0.13
0.14
0.15
0.18
0.19
0.19
0.17
0.15
0.14
0.15
0.19
0.22
0.22
0.21
0.19
0.17
0.17
0.21
0.25
0.28
0.28
0.26
0.25
0.23
0.22
0.23
0.24
0.26
0.27
0.26
0.24
0.23
0.22
0.21
0.21
0.21
0.21
0.2
0.19
0.16
0.13
0.11
0.11
0.12
0.13
0.14
0.13
0.09
0.05
0.03
0.02
0.02
0.03
0.04
0.04
0.01
-0.01
-0.04
-0.03
-0.01
0.0
0.01
0.01
0.0
-0.01
-0.02
-0.02
0.0
0.02
0.04
0.04
0.02
0.0
0.0
-0.01
-0.01
0.0
0.02
0.03
0.02
0.01
0.0
0.0
0.0
0.0
0.01
0.03
0.03
0.01
0.0
-0.01
-0.02
-0.02
0.0
0.03
0.05
0.04
0.03
0.01
0.0
0.01
0.04
0.07
0.08
0.08
0.06
0.03
0.01
0.03
0.06
0.09
0.1
0.1
0.08
0.07
0.05
0.04
0.04
0.08
0.1
0.1
0.1
0.1
0.08
0.08
0.09
0.11
0.13
0.14
0.14
0.14
0.12
0.1
0.1
0.11
0.13
0.16
0.16
0.15
0.13
0.11
0.1
0.11
0.14
0.17
0.17
0.16
0.14
0.13
0.12
0.12
0.14
0.16
0.17
0.17
0.15
0.13
0.13
0.14
0.14
0.15
0.17
0.17
0.17
0.16
0.15
0.14
0.14
0.16
0.19
0.21
0.22
0.22
0.19
0.19
0.19
0.19
0.21
0.23
0.23
0.21
0.18
0.16
0.16
0.18
0.21
0.23
0.22
0.21
0.18
0.15
0.15
0.18
0.21
0.22
0.22
0.2
0.18
0.15
0.14
0.15
0.16
0.17
0.18
0.18
0.17
0.14
0.13
0.12
0.12
0.12
0.13
0.13
0.12
0.11
0.09
0.1
0.1
0.12
0.14
0.15
0.13
0.1
0.06
0.05
0.05
0.05
0.07
0.08
0.06
0.04
0.01
-0.02
-0.02
0.0
0.01
0.03
0.02
0.0
-0.02
-0.03
-0.03
-0.02
-0.02
-0.01
-0.01
-0.04
-0.06
-0.07
-0.08
-0.09
-0.08
-0.06
-0.05
-0.07
-0.09
-0.11
-0.13
-0.15
-0.16
-0.15
-0.12
-0.12
-0.14
-0.17
-0.19
-0.2
-0.2
-0.19
-0.16
-0.16
-0.19
-0.22
-0.25
-0.28
-0.27
-0.24
-0.21
-0.21
-0.24
-0.26
-0.28
-0.28
-0.23
-0.12
-0.01
0.1
0.17
0.22
0.27
0.31
0.35
0.37
0.36
0.33
0.23
0.08
-0.11
-0.29
-0.41
-0.48
-0.5
-0.51
-0.52
-0.54
-0.57
-0.59
-0.61
-0.62
-0.62
-0.6
-0.57
-0.56
-0.57
-0.59
-0.61
-0.61
-0.6
-0.55
-0.51
-0.49
-0.49
-0.49
-0.51
-0.51
-0.49
-0.45
-0.42
-0.4
-0.4
-0.41
-0.43
-0.45
-0.45
-0.43
-0.39
-0.36
-0.36
-0.37
-0.37
-0.38
-0.38
-0.35
-0.31
-0.28
-0.27
-0.27
-0.28
-0.28
-0.29
-0.27
-0.24
-0.21
-0.19
-0.18
-0.17
-0.18
-0.2
-0.21
-0.21
-0.18
-0.16
-0.17
-0.19
-0.19
-0.22
-0.22
-0.19
-0.17
-0.15
-0.14
-0.15
-0.17
-0.19
-0.2
-0.2
-0.18
-0.14
-0.13
-0.15
-0.16
-0.16
-0.18
-0.19
-0.18
-0.15
-0.13
-0.14
-0.14
-0.14
-0.15
-0.17
-0.17
-0.16
-0.15
-0.14
-0.16
-0.21
-0.26
-0.29
-0.3
-0.3
-0.27
-0.27
-0.29
-0.32
-0.35
-0.37
-0.36
-0.34
-0.31
-0.31
-0.34
-0.39
-0.43
-0.47
-0.49
-0.49
-0.47
-0.44
-0.45
-0.48
-0.51
-0.54
-0.56
-0.56
-0.54
-0.52
-0.52
-0.53
-0.55
-0.57
-0.59
-0.6
-0.59
-0.57
-0.54
-0.53
-0.54
-0.57
-0.61
-0.62
-0.61
-0.58
-0.54
-0.53
-0.54
-0.56
-0.59
-0.6
-0.59
-0.56
-0.53
-0.53
-0.55
-0.57
-0.6
-0.62
-0.62
-0.6
-0.59
-0.57
-0.57
-0.6
-0.62
-0.63
-0.64
-0.62
-0.6
-0.58
-0.58
-0.6
-0.62
-0.64
-0.65
-0.65
-0.65
-0.65
-0.65
-0.66
-0.67
-0.69
-0.71
-0.72
-0.71
-0.69
-0.66
-0.65
-0.64
-0.66
-0.68
-0.68
-0.66
-0.63
-0.61
-0.62
-0.63
-0.66
-0.7
-0.71
-0.69
-0.67
-0.65
-0.64
-0.66
-0.69
-0.72
-0.75
-0.75
-0.73
-0.71
-0.71
-0.75
-0.78
-0.79
-0.82
-0.82
-0.81
-0.78
-0.76
-0.76
-0.76
-0.79
-0.81
-0.82
-0.81
-0.82
-0.8
-0.79
-0.79
-0.8
-0.82
-0.84
-0.83
-0.79
-0.75
-0.72
-0.71
-0.72
-0.75
-0.76
-0.76
-0.72
-0.67
-0.65
-0.64
-0.66
-0.68
-0.7
-0.7
-0.7
-0.68
-0.66
-0.66
-0.67
-0.69
-0.7
-0.72
-0.72
-0.7
-0.66
-0.64
-0.65
-0.65
-0.66
-0.66
-0.67
-0.67
-0.66
-0.64
-0.63
-0.63
-0.64
-0.67
-0.69
-0.69
-0.67
-0.63
-0.62
-0.62
-0.64
-0.66
-0.68
-0.68
-0.65
-0.61
-0.59
-0.59
-0.61
-0.63
-0.65
-0.66
-0.65
-0.62
-0.6
-0.59
-0.59
-0.6
-0.61
-0.62
-0.6
-0.57
-0.54
-0.52
-0.51
-0.49
-0.48
-0.49
-0.5
-0.48
-0.46
-0.44
-0.44
-0.45
-0.46
-0.47
-0.47
-0.45
-0.44
-0.42
-0.41
-0.41
-0.42
-0.44
-0.45
-0.44
-0.42
-0.39
-0.37
-0.37
-0.39
-0.43
-0.44
-0.41
-0.38
-0.36
-0.35
-0.34
-0.36
-0.37
-0.37
-0.34
-0.3
-0.21
-0.11
-0.03
0.03
0.1
0.16
0.21
0.25
0.28
0.29
0.29
0.23
0.09
-0.08
-0.21
-0.29
-0.33
-0.34
-0.32
-0.33
-0.35
-0.38
-0.41
-0.43
-0.43
-0.39
-0.35
-0.34
-0.34
-0.35
-0.36
-0.36
-0.34
-0.32
-0.29
-0.28
-0.28
-0.29
-0.31
-0.32
-0.32
-0.3
-0.27
-0.25
-0.25
-0.26
-0.28
-0.3
-0.3
-0.29
-0.27
-0.25
-0.25
-0.25
-0.27
-0.31
-0.32
-0.31
-0.31
-0.31
-0.3
-0.29
-0.31
-0.33
-0.35
-0.35
-0.33
-0.29
-0.27
-0.26
-0.27
-0.29
-0.32
-0.33
-0.31
-0.27
-0.22
-0.22
-0.24
-0.26
-0.27
-0.26
-0.25
-0.24
-0.21
-0.19
-0.19
-0.21
-0.21
-0.22
-0.22
-0.19
-0.16
-0.13
-0.12
-0.12
-0.12
-0.13
-0.13
-0.11
-0.09
-0.06
-0.04
-0.04
-0.04
-0.06
-0.07
-0.07
-0.04
-0.01
0.0
0.0
-0.02
-0.04
-0.06
-0.06
-0.04
-0.01
0.0
-0.01
-0.03
-0.06
-0.09
-0.1
-0.09
-0.07
-0.05
-0.05
-0.07
-0.09
-0.11
-0.13
-0.13
-0.11
-0.09
-0.09
-0.11
-0.13
-0.15
-0.19
-0.2
-0.2
-0.18
-0.17
-0.17
-0.17
-0.18
-0.2
-0.2
-0.2
-0.19
-0.16
-0.15
-0.15
-0.16
-0.17
-0.19
-0.19
-0.16
-0.12
-0.1
-0.1
-0.12
-0.14
-0.17
-0.15
-0.13
-0.11
-0.09
-0.09
-0.11
-0.12
-0.12
-0.12
-0.11
-0.08
-0.06
-0.06
-0.08
-0.08
-0.1
-0.11
-0.11
-0.09
-0.07
-0.06
-0.06
-0.06
-0.08
-0.1
-0.11
-0.11
-0.09
-0.06
-0.05
-0.06
-0.09
-0.13
-0.15
-0.14
-0.12
-0.09
-0.07
-0.08
-0.1
-0.12
-0.12
-0.09
-0.06
-0.04
-0.03
-0.03
-0.04
-0.05
-0.05
-0.03
0.0
0.03
0.05
0.05
0.03
0.02
0.02
0.02
0.03
0.06
0.09
0.08
0.08
0.08
0.06
0.04
0.03
0.04
0.05
0.07
0.07
0.05
0.0
-0.01
-0.02
0.0
0.02
0.05
0.04
0.01
0.0
-0.04
-0.05
-0.04
-0.02
0.0
0.0
0.0
-0.03
-0.04
-0.05
-0.03
-0.02
0.01
0.02
0.01
0.01
0.01
0.0
0.0
0.0
0.0
0.02
0.03
0.02
0.0
0.0
-0.01
0.0
0.01
0.04
0.06
0.05
0.03
0.01
0.0
0.0
0.02
0.06
0.09
0.09
0.06
0.04
0.02
0.02
0.04
0.08
0.11
0.1
0.08
0.06
0.04
0.04
0.05
0.07
0.11
0.11
0.09
0.08
0.09
0.09
0.1
0.12
0.13
0.13
0.12
0.12
0.12
0.11
0.11
0.13
0.15
0.17
0.18
0.17
0.15
0.14
0.13
0.13
0.15
0.19
0.21
0.2
0.18
0.16
0.14
0.14
0.16
0.19
0.2
0.19
0.17
0.14
0.12
0.14
0.16
0.19
0.22
0.23
0.22
0.19
0.18
0.18
0.19
0.22
0.25
0.25
0.23
0.22
0.2
0.19
0.2
0.22
0.25
0.26
0.28
0.27
0.24
0.21
0.21
0.24
0.28
0.34
0.4
0.47
0.55
0.62
0.68
0.74
0.81
0.86
0.87
0.84
0.79
0.7
0.59
0.48
0.37
0.3
0.26
0.2
0.15
0.12
0.1
0.1
0.11
0.11
0.12
0.11
0.09
0.07
0.06
0.06
